"AlCl3 DI Blue - RawData"
"Wavelength nm.","T%"
300.00,1.676
301.00,1.789
302.00,1.987
303.00,2.157
304.00,2.311
305.00,2.535
306.00,2.800
307.00,3.189
308.00,3.444
309.00,3.731
310.00,4.093
311.00,4.534
312.00,4.965
313.00,5.432
314.00,5.978
315.00,6.577
316.00,7.177
317.00,7.758
318.00,8.404
319.00,9.075
320.00,9.822
321.00,10.558
322.00,11.255
323.00,12.022
324.00,12.807
325.00,13.672
326.00,14.492
327.00,15.427
328.00,16.370
329.00,17.354
330.00,18.332
331.00,19.380
332.00,20.478
333.00,21.610
334.00,22.728
335.00,23.876
336.00,24.957
337.00,26.147
338.00,27.306
339.00,28.526
340.00,29.640
341.00,30.732
342.00,31.729
343.00,32.710
344.00,33.594
345.00,34.494
346.00,35.301
347.00,36.122
348.00,36.860
349.00,37.764
350.00,38.614
351.00,39.408
352.00,39.995
353.00,40.531
354.00,41.054
355.00,41.608
356.00,42.138
357.00,42.589
358.00,43.038
359.00,43.481
360.00,43.999
361.00,44.462
362.00,44.998
363.00,45.480
364.00,45.900
365.00,46.274
366.00,46.679
367.00,47.052
368.00,47.431
369.00,47.750
370.00,48.104
371.00,48.296
372.00,48.555
373.00,48.683
374.00,48.857
375.00,48.892
376.00,48.956
377.00,48.976
378.00,48.891
379.00,48.710
380.00,48.510
381.00,48.272
382.00,48.003
383.00,47.685
384.00,47.354
385.00,47.028
386.00,46.650
387.00,46.266
388.00,45.795
389.00,45.328
390.00,44.878
391.00,44.449
392.00,43.979
393.00,43.519
394.00,43.045
395.00,42.599
396.00,42.104
397.00,41.657
398.00,41.224
399.00,40.809
400.00,40.407
401.00,40.030
402.00,39.651
403.00,39.309
404.00,38.937
405.00,38.602
406.00,38.224
407.00,37.904
408.00,37.595
409.00,37.290
410.00,36.992
411.00,36.681
412.00,36.420
413.00,36.152
414.00,35.898
415.00,35.633
416.00,35.361
417.00,35.105
418.00,34.840
419.00,34.589
420.00,34.374
421.00,34.137
422.00,33.905
423.00,33.634
424.00,33.397
425.00,33.122
426.00,32.865
427.00,32.581
428.00,32.332
429.00,32.056
430.00,31.806
431.00,31.526
432.00,31.240
433.00,30.939
434.00,30.635
435.00,30.366
436.00,30.088
437.00,29.823
438.00,29.537
439.00,29.220
440.00,28.898
441.00,28.573
442.00,28.286
443.00,27.985
444.00,27.680
445.00,27.354
446.00,27.067
447.00,26.755
448.00,26.468
449.00,26.152
450.00,25.857
451.00,25.532
452.00,25.223
453.00,24.921
454.00,24.625
455.00,24.317
456.00,23.988
457.00,23.677
458.00,23.372
459.00,23.097
460.00,22.808
461.00,22.531
462.00,22.240
463.00,21.963
464.00,21.682
465.00,21.420
466.00,21.150
467.00,20.873
468.00,20.596
469.00,20.348
470.00,20.097
471.00,19.853
472.00,19.603
473.00,19.365
474.00,19.110
475.00,18.867
476.00,18.631
477.00,18.420
478.00,18.190
479.00,17.970
480.00,17.747
481.00,17.532
482.00,17.318
483.00,17.101
484.00,16.899
485.00,16.695
486.00,16.490
487.00,16.290
488.00,16.095
489.00,15.906
490.00,15.703
491.00,15.517
492.00,15.338
493.00,15.179
494.00,15.005
495.00,14.831
496.00,14.657
497.00,14.484
498.00,14.319
499.00,14.159
500.00,14.002
501.00,13.841
502.00,13.672
503.00,13.516
504.00,13.371
505.00,13.228
506.00,13.079
507.00,12.924
508.00,12.772
509.00,12.626
510.00,12.485
511.00,12.357
512.00,12.227
513.00,12.106
514.00,11.969
515.00,11.825
516.00,11.693
517.00,11.561
518.00,11.442
519.00,11.301
520.00,11.175
521.00,11.054
522.00,10.934
523.00,10.813
524.00,10.688
525.00,10.572
526.00,10.450
527.00,10.337
528.00,10.219
529.00,10.119
530.00,10.003
531.00,9.892
532.00,9.777
533.00,9.676
534.00,9.582
535.00,9.479
536.00,9.373
537.00,9.269
538.00,9.174
539.00,9.084
540.00,8.988
541.00,8.887
542.00,8.790
543.00,8.691
544.00,8.598
545.00,8.505
546.00,8.421
547.00,8.328
548.00,8.242
549.00,8.153
550.00,8.069
551.00,7.985
552.00,7.908
553.00,7.829
554.00,7.747
555.00,7.663
556.00,7.587
557.00,7.508
558.00,7.433
559.00,7.354
560.00,7.289
561.00,7.219
562.00,7.148
563.00,7.076
564.00,6.998
565.00,6.930
566.00,6.857
567.00,6.789
568.00,6.720
569.00,6.652
570.00,6.587
571.00,6.526
572.00,6.465
573.00,6.401
574.00,6.341
575.00,6.286
576.00,6.228
577.00,6.167
578.00,6.105
579.00,6.050
580.00,5.996
581.00,5.943
582.00,5.891
583.00,5.839
584.00,5.785
585.00,5.729
586.00,5.674
587.00,5.620
588.00,5.567
589.00,5.519
590.00,5.470
591.00,5.430
592.00,5.383
593.00,5.339
594.00,5.292
595.00,5.248
596.00,5.206
597.00,5.162
598.00,5.122
599.00,5.080
600.00,5.038
601.00,4.998
602.00,4.957
603.00,4.921
604.00,4.876
605.00,4.838
606.00,4.795
607.00,4.766
608.00,4.725
609.00,4.687
610.00,4.648
611.00,4.615
612.00,4.578
613.00,4.541
614.00,4.505
615.00,4.476
616.00,4.443
617.00,4.413
618.00,4.383
619.00,4.353
620.00,4.318
621.00,4.286
622.00,4.255
623.00,4.227
624.00,4.199
625.00,4.175
626.00,4.148
627.00,4.119
628.00,4.088
629.00,4.058
630.00,4.025
631.00,3.999
632.00,3.974
633.00,3.957
634.00,3.932
635.00,3.905
636.00,3.877
637.00,3.849
638.00,3.831
639.00,3.808
640.00,3.788
641.00,3.763
642.00,3.741
643.00,3.716
644.00,3.694
645.00,3.675
646.00,3.652
647.00,3.633
648.00,3.612
649.00,3.592
650.00,3.572
651.00,3.550
652.00,3.531
653.00,3.508
654.00,3.484
655.00,3.471
656.00,3.452
657.00,3.435
658.00,3.412
659.00,3.397
660.00,3.383
661.00,3.367
662.00,3.351
663.00,3.331
664.00,3.313
665.00,3.292
666.00,3.277
667.00,3.260
668.00,3.249
669.00,3.240
670.00,3.227
671.00,3.212
672.00,3.191
673.00,3.179
674.00,3.165
675.00,3.154
676.00,3.139
677.00,3.116
678.00,3.101
679.00,3.092
680.00,3.084
681.00,3.072
682.00,3.054
683.00,3.041
684.00,3.031
685.00,3.025
686.00,3.014
687.00,3.000
688.00,2.983
689.00,2.975
690.00,2.959
691.00,2.948
692.00,2.936
693.00,2.924
694.00,2.913
695.00,2.905
696.00,2.897
697.00,2.885
698.00,2.872
699.00,2.858
700.00,2.847
701.00,2.838
702.00,2.831
703.00,2.827
704.00,2.815
705.00,2.809
706.00,2.794
707.00,2.784
708.00,2.768
709.00,2.764
710.00,2.756
711.00,2.745
712.00,2.734
713.00,2.723
714.00,2.722
715.00,2.713
716.00,2.708
717.00,2.698
718.00,2.690
719.00,2.683
720.00,2.679
721.00,2.676
722.00,2.659
723.00,2.649
724.00,2.638
725.00,2.641
726.00,2.634
727.00,2.629
728.00,2.615
729.00,2.609
730.00,2.603
731.00,2.601
732.00,2.595
733.00,2.591
734.00,2.577
735.00,2.566
736.00,2.561
737.00,2.562
738.00,2.557
739.00,2.553
740.00,2.542
741.00,2.533
742.00,2.520
743.00,2.517
744.00,2.513
745.00,2.507
746.00,2.508
747.00,2.504
748.00,2.497
749.00,2.484
750.00,2.475
751.00,2.475
752.00,2.469
753.00,2.462
754.00,2.453
755.00,2.448
756.00,2.444
757.00,2.436
758.00,2.432
759.00,2.433
760.00,2.436
761.00,2.420
762.00,2.414
763.00,2.406
764.00,2.401
765.00,2.395
766.00,2.385
767.00,2.383
768.00,2.379
769.00,2.385
770.00,2.391
771.00,2.383
772.00,2.370
773.00,2.370
774.00,2.369
775.00,2.371
776.00,2.359
777.00,2.352
778.00,2.344
779.00,2.346
780.00,2.345
781.00,2.344
782.00,2.332
783.00,2.330
784.00,2.322
785.00,2.323
786.00,2.318
787.00,2.317
788.00,2.313
789.00,2.309
790.00,2.303
791.00,2.300
792.00,2.292
793.00,2.291
794.00,2.287
795.00,2.287
796.00,2.284
797.00,2.277
798.00,2.274
799.00,2.272
800.00,2.269
801.00,2.269
802.00,2.272
803.00,2.266
804.00,2.266
805.00,2.260
806.00,2.260
807.00,2.252
808.00,2.248
809.00,2.242
810.00,2.235
811.00,2.228
812.00,2.232
813.00,2.225
814.00,2.220
815.00,2.219
816.00,2.228
817.00,2.219
818.00,2.213
819.00,2.209
820.00,2.230
821.00,2.238
822.00,2.229
823.00,2.216
824.00,2.204
825.00,2.207
826.00,2.203
827.00,2.195
828.00,2.187
829.00,2.175
830.00,2.165
831.00,2.164
832.00,2.175
833.00,2.175
834.00,2.204
835.00,2.189
836.00,2.147
837.00,2.092
838.00,2.128
839.00,2.147
840.00,2.143
841.00,2.102
842.00,2.130
843.00,2.158
844.00,2.180
845.00,2.214
846.00,2.240
847.00,2.249
848.00,2.225
849.00,2.217
850.00,2.202
851.00,2.178
852.00,2.133
853.00,2.099
854.00,2.115
855.00,2.168
856.00,2.161
857.00,2.138
858.00,2.105
859.00,2.145
860.00,2.132
861.00,2.119
862.00,2.092
863.00,2.107
864.00,2.101
865.00,2.105
866.00,2.115
867.00,2.107
868.00,2.108
869.00,2.121
870.00,2.131
871.00,2.133
872.00,2.115
873.00,2.099
874.00,2.086
875.00,2.079
876.00,2.100
877.00,2.115
878.00,2.122
879.00,2.118
880.00,2.137
881.00,2.149
882.00,2.136
883.00,2.120
884.00,2.117
885.00,2.139
886.00,2.106
887.00,2.077
888.00,2.030
889.00,2.042
890.00,2.056
891.00,2.098
892.00,2.132
893.00,2.130
894.00,2.123
895.00,2.089
896.00,2.099
897.00,2.116
898.00,2.114
899.00,2.108
900.00,2.103
901.00,2.118
902.00,2.110
903.00,2.080
904.00,2.070
905.00,2.069
906.00,2.074
907.00,2.075
908.00,2.075
909.00,2.069
910.00,2.050
911.00,2.039
912.00,2.062
913.00,2.074
914.00,2.088
915.00,2.066
916.00,2.059
917.00,2.046
918.00,2.037
919.00,2.056
920.00,2.054
921.00,2.085
922.00,2.078
923.00,2.099
924.00,2.092
925.00,2.101
926.00,2.079
927.00,2.078
928.00,2.063
929.00,2.073
930.00,2.069
931.00,2.074
932.00,2.074
933.00,2.061
934.00,2.060
935.00,2.062
936.00,2.089
937.00,2.071
938.00,2.067
939.00,2.049
940.00,2.062
941.00,2.066
942.00,2.065
943.00,2.070
944.00,2.055
945.00,2.073
946.00,2.069
947.00,2.106
948.00,2.089
949.00,2.070
950.00,2.048
951.00,2.041
952.00,2.039
953.00,2.046
954.00,2.064
955.00,2.096
956.00,2.076
957.00,2.058
958.00,2.055
959.00,2.064
960.00,2.079
961.00,2.065
962.00,2.083
963.00,2.076
964.00,2.084
965.00,2.079
966.00,2.073
967.00,2.061
968.00,2.054
969.00,2.062
970.00,2.080
971.00,2.072
972.00,2.075
973.00,2.045
974.00,2.051
975.00,2.050
976.00,2.084
977.00,2.072
978.00,2.066
979.00,2.062
980.00,2.073
981.00,2.078
982.00,2.070
983.00,2.060
984.00,2.057
985.00,2.060
986.00,2.064
987.00,2.060
988.00,2.057
989.00,2.060
990.00,2.066
991.00,2.049
992.00,2.056
993.00,2.068
994.00,2.095
995.00,2.094
996.00,2.083
997.00,2.067
998.00,2.045
999.00,2.036
1000.00,2.043
1001.00,2.071
1002.00,2.083
1003.00,2.088
1004.00,2.088
1005.00,2.087
1006.00,2.069
1007.00,2.058
1008.00,2.059
1009.00,2.070
1010.00,2.077
1011.00,2.082
1012.00,2.098
1013.00,2.091
1014.00,2.084
1015.00,2.084
1016.00,2.093
1017.00,2.085
1018.00,2.057
1019.00,2.061
1020.00,2.076
1021.00,2.089
1022.00,2.089
1023.00,2.088
1024.00,2.101
1025.00,2.086
1026.00,2.097
1027.00,2.090
1028.00,2.100
1029.00,2.094
1030.00,2.096
1031.00,2.089
1032.00,2.082
1033.00,2.090
1034.00,2.106
1035.00,2.105
1036.00,2.094
1037.00,2.095
1038.00,2.104
1039.00,2.117
1040.00,2.099
1041.00,2.099
1042.00,2.093
1043.00,2.096
1044.00,2.094
1045.00,2.112
1046.00,2.113
1047.00,2.129
1048.00,2.125
1049.00,2.149
1050.00,2.128
1051.00,2.117
1052.00,2.091
1053.00,2.107
1054.00,2.103
1055.00,2.109
1056.00,2.101
1057.00,2.099
1058.00,2.111
1059.00,2.113
1060.00,2.122
1061.00,2.126
1062.00,2.137
1063.00,2.143
1064.00,2.127
1065.00,2.128
1066.00,2.122
1067.00,2.146
1068.00,2.141
1069.00,2.160
1070.00,2.158
1071.00,2.173
1072.00,2.171
1073.00,2.168
1074.00,2.164
1075.00,2.156
1076.00,2.158
1077.00,2.158
1078.00,2.151
1079.00,2.147
1080.00,2.147
1081.00,2.162
1082.00,2.154
1083.00,2.155
1084.00,2.147
1085.00,2.170
1086.00,2.189
1087.00,2.200
1088.00,2.185
1089.00,2.172
1090.00,2.163
1091.00,2.164
1092.00,2.152
1093.00,2.156
1094.00,2.175
1095.00,2.195
1096.00,2.203
1097.00,2.195
1098.00,2.182
1099.00,2.186
1100.00,2.172
1101.00,2.171
1102.00,2.160
1103.00,2.191
1104.00,2.193
1105.00,2.202
1106.00,2.191
1107.00,2.215
1108.00,2.210
1109.00,2.215
1110.00,2.205
1111.00,2.218
1112.00,2.199
1113.00,2.193
1114.00,2.191
1115.00,2.218
1116.00,2.227
1117.00,2.233
1118.00,2.224
1119.00,2.229
1120.00,2.212
1121.00,2.219
1122.00,2.234
1123.00,2.243
1124.00,2.243
1125.00,2.233
1126.00,2.254
1127.00,2.253
1128.00,2.261
1129.00,2.249
1130.00,2.269
1131.00,2.254
1132.00,2.270
1133.00,2.258
1134.00,2.255
1135.00,2.238
1136.00,2.247
1137.00,2.258
1138.00,2.271
1139.00,2.276
1140.00,2.280
1141.00,2.284
1142.00,2.290
1143.00,2.303
1144.00,2.303
1145.00,2.294
1146.00,2.286
1147.00,2.292
1148.00,2.295
1149.00,2.300
1150.00,2.302
1151.00,2.318
1152.00,2.308
1153.00,2.309
1154.00,2.309
1155.00,2.324
1156.00,2.343
1157.00,2.336
1158.00,2.332
1159.00,2.318
1160.00,2.332
1161.00,2.340
1162.00,2.327
1163.00,2.326
1164.00,2.338
1165.00,2.355
1166.00,2.333
1167.00,2.335
1168.00,2.344
1169.00,2.366
1170.00,2.357
1171.00,2.326
1172.00,2.327
1173.00,2.349
1174.00,2.382
1175.00,2.386
1176.00,2.386
1177.00,2.386
1178.00,2.397
1179.00,2.396
1180.00,2.404
1181.00,2.415
1182.00,2.405
1183.00,2.403
1184.00,2.385
1185.00,2.393
1186.00,2.387
1187.00,2.390
1188.00,2.406
1189.00,2.408
1190.00,2.399
1191.00,2.382
1192.00,2.403
1193.00,2.429
1194.00,2.453
1195.00,2.434
1196.00,2.413
1197.00,2.413
1198.00,2.411
1199.00,2.436
1200.00,2.426
1201.00,2.443
1202.00,2.463
1203.00,2.470
1204.00,2.480
1205.00,2.454
1206.00,2.431
1207.00,2.423
1208.00,2.445
1209.00,2.482
1210.00,2.495
1211.00,2.470
1212.00,2.455
1213.00,2.457
1214.00,2.472
1215.00,2.481
1216.00,2.499
1217.00,2.510
1218.00,2.550
1219.00,2.528
1220.00,2.509
1221.00,2.468
1222.00,2.462
1223.00,2.499
1224.00,2.512
1225.00,2.519
1226.00,2.495
1227.00,2.495
1228.00,2.512
1229.00,2.519
1230.00,2.549
1231.00,2.577
1232.00,2.606
1233.00,2.605
1234.00,2.581
1235.00,2.558
1236.00,2.563
1237.00,2.558
1238.00,2.553
1239.00,2.539
1240.00,2.559
1241.00,2.576
1242.00,2.580
1243.00,2.581
1244.00,2.622
1245.00,2.631
1246.00,2.642
1247.00,2.597
1248.00,2.583
1249.00,2.582
1250.00,2.609
1251.00,2.637
1252.00,2.620
1253.00,2.622
1254.00,2.619
1255.00,2.642
1256.00,2.661
1257.00,2.678
1258.00,2.665
1259.00,2.641
1260.00,2.624
1261.00,2.629
1262.00,2.643
1263.00,2.655
1264.00,2.669
1265.00,2.670
1266.00,2.669
1267.00,2.658
1268.00,2.658
1269.00,2.647
1270.00,2.679
1271.00,2.682
1272.00,2.690
1273.00,2.702
1274.00,2.706
1275.00,2.736
1276.00,2.731
1277.00,2.745
1278.00,2.737
1279.00,2.760
1280.00,2.767
1281.00,2.795
1282.00,2.760
1283.00,2.752
1284.00,2.737
1285.00,2.774
1286.00,2.790
1287.00,2.807
1288.00,2.792
1289.00,2.809
1290.00,2.827
1291.00,2.842
1292.00,2.827
1293.00,2.795
1294.00,2.796
1295.00,2.811
1296.00,2.833
1297.00,2.829
1298.00,2.823
1299.00,2.830
1300.00,2.827
1301.00,2.834
1302.00,2.811
1303.00,2.805
1304.00,2.824
1305.00,2.812
1306.00,2.808
1307.00,2.787
1308.00,2.790
1309.00,2.813
1310.00,2.851
1311.00,2.886
1312.00,2.880
1313.00,2.879
1314.00,2.881
1315.00,2.893
1316.00,2.862
1317.00,2.856
1318.00,2.852
1319.00,2.890
1320.00,2.912
1321.00,2.912
1322.00,2.889
1323.00,2.882
1324.00,2.918
1325.00,2.940
1326.00,2.951
1327.00,2.957
1328.00,2.944
1329.00,2.929
1330.00,2.897
1331.00,2.951
1332.00,2.965
1333.00,3.009
1334.00,2.971
1335.00,2.984
1336.00,2.979
1337.00,2.995
1338.00,3.025
1339.00,3.005
1340.00,3.004
1341.00,2.964
1342.00,3.006
1343.00,2.980
1344.00,3.021
1345.00,3.004
1346.00,3.064
1347.00,3.033
1348.00,3.049
1349.00,3.042
1350.00,3.045
1351.00,3.059
1352.00,3.053
1353.00,3.098
1354.00,3.079
1355.00,3.098
1356.00,3.102
1357.00,3.159
1358.00,3.151
1359.00,3.135
1360.00,3.124
1361.00,3.150
1362.00,3.178
1363.00,3.138
1364.00,3.146
1365.00,3.117
1366.00,3.167
1367.00,3.188
1368.00,3.229
1369.00,3.201
1370.00,3.175
1371.00,3.143
1372.00,3.166
1373.00,3.151
1374.00,3.204
1375.00,3.199
1376.00,3.225
1377.00,3.186
1378.00,3.173
1379.00,3.166
1380.00,3.219
1381.00,3.276
1382.00,3.303
1383.00,3.303
1384.00,3.301
1385.00,3.346
1386.00,3.335
1387.00,3.361
1388.00,3.279
1389.00,3.293
1390.00,3.259
1391.00,3.276
1392.00,3.260
1393.00,3.281
1394.00,3.365
1395.00,3.383
1396.00,3.355
1397.00,3.354
1398.00,3.390
1399.00,3.387
1400.00,3.320
